# Gnuplot File : positions of 1 particle(s) Monitored
# 1st Column : time, others : particle(s) number 52 
0.2	0.135532 -8.09134e-012 0.310351	
0.4	0.137292 8.37959e-007 0.293346	
0.6	0.138706 8.4646e-007 0.280513	
0.8	0.139846 8.53171e-007 0.270663	
1	0.140769 1.34947e-006 0.262996	
1.2	0.141519 1.695e-006 0.256959	
1.4	0.142131 1.93085e-006 0.252161	
1.6	0.14263 2.09028e-006 0.248318	
1.8	0.143039 2.19778e-006 0.245222	
2	0.143375 2.2702e-006 0.242713	
2.2	0.143651 2.31911e-006 0.240673	
2.4	0.143878 2.35219e-006 0.239009	
2.6	0.144066 2.37476e-006 0.237646	
2.8	0.14422 2.39019e-006 0.236529	
3	0.144347 2.4007e-006 0.235611	
3.2	0.144452 2.40807e-006 0.234855	
3.4	0.144539 2.41324e-006 0.234232	
3.6	0.144611 2.41689e-006 0.233719	
3.8	0.14467 2.41942e-006 0.233295	
4	0.144719 2.42129e-006 0.232944	
4.2	0.14476 2.42264e-006 0.232655	
4.4	0.144793 2.42363e-006 0.232415	
4.6	0.144821 2.42438e-006 0.232217	
4.8	0.144844 2.42487e-006 0.232053	
5	0.144863 2.42532e-006 0.231918	
5.2	0.144879 2.42563e-006 0.231805	
5.4	0.144892 2.42595e-006 0.231712	
5.6	0.144903 2.4262e-006 0.231635	
5.8	0.144911 2.42641e-006 0.231571	
6	0.144919 2.4265e-006 0.231519	
6.2	0.144925 2.42665e-006 0.231475	
6.4	0.14493 2.42675e-006 0.231439	
6.6	0.144934 2.42688e-006 0.231408	
6.8	0.144938 2.42696e-006 0.231384	
7	0.144941 2.42702e-006 0.231363	
7.2	0.144943 2.42703e-006 0.231346	
7.4	0.144945 2.42701e-006 0.231332	
7.6	0.144947 2.42701e-006 0.23132	
7.8	0.144948 2.4271e-006 0.23131	
8	0.144949 2.42716e-006 0.231302	
8.2	0.14495 2.43117e-006 0.231296	
8.4	0.144951 2.43396e-006 0.23129	
8.6	0.144951 2.4355e-006 0.231285	
8.8	0.144952 2.43622e-006 0.231282	
9	0.144952 2.43641e-006 0.231279	
9.2	0.144953 2.43622e-006 0.231276	
9.4	0.144953 2.43494e-006 0.231274	
9.6	0.144953 2.43377e-006 0.231272	
9.8	0.144953 2.43274e-006 0.23127	
10	0.144954 2.43165e-006 0.231269	
10.2	0.144954 2.43076e-006 0.231268	
10.4	0.144954 2.43008e-006 0.231267	
10.6	0.144954 2.42921e-006 0.231267	
10.8	0.144954 2.4282e-006 0.231266	
11	0.144954 2.42747e-006 0.231266	
11.2	0.144954 2.42674e-006 0.231265	
11.4	0.144954 2.42629e-006 0.231265	
11.6	0.144954 2.42607e-006 0.231265	
11.8	0.144954 2.42569e-006 0.231264	
12	0.144954 2.42558e-006 0.231264	
12.2	0.144954 2.42564e-006 0.231264	
12.4	0.144954 2.4258e-006 0.231264	
12.6	0.144954 2.42601e-006 0.231264	
12.8	0.144954 2.42619e-006 0.231264	
13	0.144954 2.42637e-006 0.231264	
13.2	0.144954 2.4265e-006 0.231264	
13.4	0.144954 2.42665e-006 0.231264	
13.6	0.144954 2.42676e-006 0.231264	
13.8	0.144954 2.42692e-006 0.231264	
14	0.144954 2.4271e-006 0.231263	
14.2	0.144954 2.42731e-006 0.231263	
14.4	0.144954 2.42744e-006 0.231263	
14.6	0.144954 2.4275e-006 0.231263	
14.8	0.144954 2.42753e-006 0.231263	
15	0.144954 2.42753e-006 0.231263	
15.2	0.144954 2.42753e-006 0.231263	
15.4	0.144954 2.42753e-006 0.231263	
15.6	0.144954 2.42753e-006 0.231263	
15.8	0.144954 2.42753e-006 0.231263	
16	0.144954 2.42753e-006 0.231263	
16.2	0.144954 2.42753e-006 0.231263	
16.4	0.144954 2.42753e-006 0.231263	
16.6	0.144954 2.42753e-006 0.231263	
16.8	0.144954 2.42753e-006 0.231263	
17	0.144954 2.42753e-006 0.231263	
17.2	0.144954 2.42753e-006 0.231263	
17.4	0.144954 2.42753e-006 0.231263	
17.6	0.144954 2.42753e-006 0.231263	
17.8	0.144954 2.42753e-006 0.231263	
18	0.144954 2.42753e-006 0.231263	
18.2	0.144954 2.42753e-006 0.231263	
18.4	0.144954 2.42753e-006 0.231263	
18.6	0.144954 2.42753e-006 0.231263	
18.8	0.144954 2.42753e-006 0.231263	
19	0.144954 2.42753e-006 0.231263	
19.2	0.144954 2.42753e-006 0.231263	
19.4	0.144954 2.42753e-006 0.231263	
19.6	0.144954 2.42753e-006 0.231263	
19.8	0.144954 2.42753e-006 0.231263	
20	0.144954 2.42753e-006 0.231263	
20.2	0.144954 2.42753e-006 0.231263	
20.4	0.144954 2.42753e-006 0.231263	
20.6	0.144954 2.42753e-006 0.231263	
20.8	0.144954 2.42753e-006 0.231263	
21	0.144954 2.42753e-006 0.231263	
21.2	0.144954 2.42753e-006 0.231263	
21.4	0.144954 2.42753e-006 0.231263	
21.6	0.144954 2.42753e-006 0.231263	
21.8	0.144954 2.42753e-006 0.231263	
22	0.144954 2.42753e-006 0.231263	
22.2	0.144954 2.42753e-006 0.231263	
22.4	0.144954 2.42753e-006 0.231263	
22.6	0.144954 2.42753e-006 0.231263	
22.8	0.144954 2.42753e-006 0.231263	
23	0.144954 2.42753e-006 0.231263	
23.2	0.144954 2.42753e-006 0.231263	
23.4	0.144954 2.42753e-006 0.231263	
23.6	0.144954 2.42753e-006 0.231263	
23.8	0.144954 2.42753e-006 0.231263	
24	0.144954 2.42753e-006 0.231263	
24.2	0.144954 2.42753e-006 0.231263	
24.4	0.144954 2.42753e-006 0.231263	
24.6	0.144954 2.42753e-006 0.231263	
24.8	0.144954 2.42753e-006 0.231263	
25	0.144954 2.42753e-006 0.231263	
25.2	0.144954 2.42753e-006 0.231263	
25.4	0.144954 2.42753e-006 0.231263	
25.6	0.144954 2.42753e-006 0.231263	
25.8	0.144954 2.42753e-006 0.231263	
26	0.144954 2.42753e-006 0.231263	
